Date,Open,High,Low,Close,Volume
2024-06-11,12.0602,12.4284,11.876,12.2442,6414.147721373514
2024-06-12,12.2442,12.2442,11.5078,11.968,6967.035306501222
2024-06-13,11.876,11.876,11.4617,11.83,1035.1706652784012
2024-06-14,11.5078,11.968,11.5078,11.968,1370.8136197075994
2024-06-17,11.968,11.968,11.5078,11.922,5211.69869045726
2024-06-18,11.876,11.876,11.5078,11.6919,3923.438030415094
2024-06-19,11.876,11.876,11.4157,11.5538,4116.785751736768
2024-06-20,11.5998,11.5998,11.1395,11.4157,5398.5290728579785
2024-06-21,11.3236,11.3236,10.9554,11.1395,3467.224305948223
2024-06-24,11.0475,11.5078,10.5871,11.4617,16027.222629782593
2024-06-25,11.4157,11.4617,11.2316,11.4617,498.57642745308095
2024-06-26,11.4617,11.784,11.2776,11.784,2609.108014689108
2024-06-27,11.7379,11.876,10.8173,11.5538,25404.587113883783
2024-06-28,11.2776,11.5538,11.0014,11.2776,4932.539340009675
2024-07-01,11.2776,11.2776,10.7253,11.0014,7956.584599332936
2024-07-02,11.0014,11.0014,10.5871,10.5871,7640.493661666605
2024-07-03,10.4031,11.2316,10.4031,11.2316,5374.632163481142
2024-07-04,11.4157,11.6919,10.7253,11.3697,12835.899004821476
2024-07-05,11.1395,11.4617,11.0475,11.4157,8673.491880638021
2024-07-08,11.5998,11.784,11.5538,11.7379,6291.404505028855
2024-07-09,11.7379,11.968,11.6458,11.784,1828.113567327964
2024-07-10,11.968,12.1522,11.5998,11.968,4638.172865413193
2024-07-11,11.968,12.0602,11.5998,12.0602,4995.540282912242
2024-07-12,12.0602,12.0602,11.5998,12.0141,4713.122263004179
2024-07-15,12.0141,12.1062,10.8173,11.0014,39110.5508646528
2024-07-16,11.0014,11.4617,11.0014,11.3697,4944.487794698092
2024-07-17,11.3236,11.3236,10.9554,11.0475,6141.505709846884
2024-07-18,11.0475,11.2776,10.9093,11.2316,598.5089575743956
2024-07-19,11.1855,11.1855,10.9554,11.1855,841.822943956727
2024-07-22,11.1855,11.1855,10.9554,11.1855,3677.9515977257774
2024-07-23,11.0935,11.6458,11.0475,11.2776,7877.29030912798
2024-07-24,11.0475,11.3236,10.9093,11.0935,2920.85405974147
2024-07-25,11.0475,11.1855,10.6792,10.9093,7654.614562662007
2024-07-26,10.9554,11.2316,10.8173,10.8633,1550.0404400338705
2024-07-29,11.0475,11.0475,10.5871,10.9554,2852.422001071439
2024-07-30,10.6792,10.9554,10.4031,10.7713,3866.954426433482
2024-07-31,10.7713,10.7713,9.80457,10.3569,14203.4539550686
2024-08-01,9.80457,10.2649,9.80457,10.2189,3581.2777370649405
2024-08-02,10.1269,10.1269,9.48239,9.94271,3468.3105291017155
2024-08-05,9.39034,9.62051,8.46972,9.20621,33877.127711125686
2024-08-06,9.05891,9.62051,9.05891,9.48239,14341.404295562152
2024-08-07,9.48239,9.66652,9.20621,9.66652,5767.844945045446
2024-08-08,9.66652,9.75855,9.48239,9.71254,7504.715767480035
2024-08-09,9.75855,9.75855,9.43637,9.57446,4051.6123625272153
2024-08-12,9.43637,10.3569,9.43637,9.98872,9671.730958697672
2024-08-13,10.0347,10.1269,9.75855,10.0808,3038.1661603186653
2024-08-14,10.1269,10.1269,9.71254,9.94271,5234.509376680604
2024-08-16,9.94271,10.3569,9.71254,10.3569,4680.535568399402
2024-08-19,10.1269,10.3569,9.75855,9.98872,5734.172027287177
2024-08-20,9.89669,10.3109,9.89669,10.2189,4022.284337382917
2024-08-21,10.3109,10.9554,10.0808,10.4951,8437.781456330136
2024-08-22,10.4951,10.4951,10.1729,10.1729,1619.5587218573935
2024-08-23,10.4031,10.4491,10.0808,10.0808,4149.372446341545
2024-08-26,9.85068,10.4031,9.80457,10.1269,2974.0789942626047
2024-08-27,10.1269,10.7713,10.1269,10.7253,4855.417496111703
2024-08-28,10.9554,11.2316,10.5411,11.0475,9015.652173988175
2024-08-29,11.0475,11.2316,10.7253,11.2316,4357.927291812115
2024-08-30,11.2316,11.5078,11.0014,11.5078,3714.8831849445246
2024-09-02,11.2316,11.83,11.2316,11.4157,7266.832896865167
2024-09-03,11.784,11.784,11.3236,11.6919,3921.265584108109
2024-09-04,11.5998,11.5998,11.0935,11.3697,7997.861079165653
2024-09-05,11.5538,11.5998,11.0475,11.3697,5522.35851235613
2024-09-06,11.5538,11.5538,10.8633,11.0475,5648.360398161266
2024-09-09,11.1916,11.912,10.2789,11.5278,7988.356626339601
2024-09-10,11.4797,11.4797,11.0475,11.3837,1318.9012047918
2024-09-11,11.3837,11.5278,11.0475,11.3837,1353.25301202
2024-09-12,11.3837,11.3837,10.2789,10.2789,9563.3349395598
2024-09-13,10.7112,11.2396,10.327,10.9514,3881.7542167866
2024-09-16,10.9514,11.3356,10.8553,11.0955,962.891566245
2024-09-17,11.0955,11.2876,10.5671,10.6632,3403.951807158
2024-09-18,11.1435,11.2396,10.9514,10.9514,1649.927710809
2024-09-19,11.1435,11.1435,10.5671,10.8073,3772.4530119696
2024-09-20,10.9514,11.0955,10.7593,11.0475,464.2698795084
2024-09-23,11.0475,11.1435,10.9034,11.1435,685.9951807086001
2024-09-24,11.1435,11.1435,10.8073,10.9994,878.5734939576
2024-09-25,10.9994,10.9994,10.7593,10.8553,1002.4481927502
2024-09-26,10.8553,11.0475,10.2789,11.0475,10335.7301202666
2024-09-27,10.9994,11.0475,10.6152,11.0475,2751.2674698222
2024-09-30,11.0475,11.0475,10.5671,10.9034,2234.9493975438
2024-10-01,10.9034,10.9034,10.6632,10.6632,1780.048192734
2024-10-02,10.6632,11.3356,10.6632,11.0475,6373.8216866142
2024-10-03,11.0475,11.4797,10.8073,11.2396,3340.4530119786
2024-10-04,11.0955,11.2396,10.9514,11.1916,2059.0265059812
2024-10-07,10.9514,11.3356,10.9514,10.9994,3861.975903534
2024-10-08,10.9994,11.3356,10.9994,11.3356,3324.8385541476
2024-10-09,11.3356,11.3356,11.1435,11.1435,3426.8530119768
2024-10-10,11.3356,11.3356,11.1916,11.2876,297.7156626444
2024-10-11,11.2876,11.2876,10.9994,11.0955,1609.3301204484
2024-10-14,11.0955,11.1916,10.9034,11.1916,7804.1060239338
2024-10-15,11.1916,11.1916,11.1435,11.1916,1383.4409638266
2024-10-16,11.1916,11.1916,10.9514,11.1916,2845.9951806636
2024-10-17,11.1916,11.1916,10.8073,11.0475,2313.0216866988
2024-10-18,11.1916,11.1916,10.8553,11.0475,3073.9662649962
2024-10-21,10.9514,11.1916,10.7593,11.1435,3139.5469878864
2024-10-22,11.2876,11.816,11.2876,11.4797,6545.5807227552
2024-10-23,11.4317,11.4317,10.7593,11.1435,6301.9951805916
2024-10-24,11.1916,11.1916,10.7593,10.7593,3368.5590360744
2024-10-25,10.7593,10.9514,10.6152,10.6632,2370.2746987458
2024-10-28,10.9514,11.0475,10.6152,10.9994,1345.9662650322
2024-10-29,11.0475,11.0475,10.7593,10.8073,579.8168674578
2024-10-30,11.0475,11.0475,10.8073,10.9994,245.6674698744
2024-10-31,10.9994,11.3356,10.7112,11.3356,6525.8024095026
2024-11-04,11.3356,11.5758,11.3356,11.5758,5842.9301203602
2024-11-05,11.5758,11.5758,11.3356,11.5278,1722.795180687
2024-11-06,11.5278,11.5278,11.2876,11.3356,6054.2457830064
2024-11-07,11.2876,11.2876,10.5671,10.6632,15845.5518068988
2024-11-08,10.9514,10.9514,10.7593,10.9514,1413.6289156332
2024-11-12,10.9034,10.9514,10.7112,10.9514,5887.6915661424
2024-11-13,10.9514,11.0475,10.7112,10.7112,1661.3783132184
2024-11-14,10.8553,11.2396,10.6152,11.0475,3600.6939758286003
2024-11-15,11.0475,11.2396,10.7593,11.1916,1934.1108433332
2024-11-18,11.1916,11.4317,10.9034,10.9034,3666.2746987188
2024-11-19,10.9034,11.2876,10.6632,10.9514,6052.1638552956
2024-11-20,10.9514,11.1916,10.7593,10.8553,3073.9662649962
2024-11-21,11.0475,11.0475,10.8553,10.8553,3592.3662649854
2024-11-22,11.5278,12.0081,11.3356,11.912,71896.25060091181
2024-11-25,12.2483,13.4491,12.2483,13.1609,56678.3999988192
2024-11-26,13.353,13.353,12.9207,13.353,14665.0987948752
2024-11-27,13.353,13.401,12.9688,13.305,7237.8216865962
2024-11-28,13.353,15.1782,13.1609,14.6979,34657.8506016876
2024-11-29,15.0822,15.2263,14.0735,15.1302,20798.457830892
2024-12-02,15.1302,16.331,15.1302,15.9948,25680.578312718
2024-12-03,16.0909,16.235,14.89,15.8027,24830.1108428562
2024-12-04,15.8027,16.1869,15.1302,15.7546,9550.843373295
2024-12-05,15.7546,16.0428,15.2263,15.5145,3810.9686746194
2024-12-06,15.2263,15.6105,15.2263,15.4184,2410.8722891064
2024-12-09,15.4184,15.8507,15.3704,15.3704,4170.1012047324
2024-12-10,15.6586,15.6586,14.794,15.2743,5474.4289155486
2024-12-11,14.89,14.89,13.5932,14.794,37832.7903606576
2024-12-12,14.89,14.89,14.3137,14.6979,4362.6795179814
2024-12-13,14.794,15.0822,14.6979,14.6979,4427.2192770162
2024-12-16,14.9861,15.1782,14.6979,15.0341,6106.2939757764
2024-12-17,15.0341,15.0341,14.0735,14.7459,7512.6361444218
2024-12-18,14.7459,14.794,14.3137,14.7459,2915.7397589754
2024-12-19,14.6499,14.7459,14.2656,14.6019,3249.8891565588
2024-12-20,14.6019,14.6019,14.2656,14.6019,3784.9445782344
2024-12-23,14.794,15.3704,14.7459,15.3223,16498.2361442346
2024-12-27,15.8507,16.331,15.8507,16.283,11677.5325298772
2024-12-30,16.331,17.6759,16.331,17.0995,14423.5951804224
2025-01-02,17.772,18.8767,17.4838,18.0122,20689.156626075
2025-01-03,18.0122,18.2523,17.5799,18.1563,12362.4867467304
2025-01-07,18.2523,20.0775,18.2523,18.9728,21700.9734935238
2025-01-08,19.309,19.309,18.4925,19.1649,5854.3807227696
2025-01-09,19.1649,19.1649,18.7326,19.1169,4352.2698794274
2025-01-10,19.0689,19.1649,18.5885,19.1649,5955.3542167434
2025-01-13,19.1169,19.1649,18.5405,18.9728,6209.349397461
2025-01-14,18.6846,19.1649,18.6366,18.7807,4740.5493974916
2025-01-15,19.0208,20.2697,18.7807,20.0775,11357.9566262694
2025-01-16,20.1736,21.3264,20.0775,20.9421,20688.1156622196
2025-01-17,21.0382,21.5185,20.75,21.5185,14646.361445478
2025-01-20,21.5185,22.4792,20.9421,21.9988,31467.2963848866
2025-01-21,21.9988,22.287,21.5185,21.9028,6811.026505882201
2025-01-22,21.7106,21.9028,20.75,21.5185,15410.4289153416
2025-01-23,21.8067,22.0949,20.9421,21.5185,5358.8819275992
2025-01-24,21.5185,21.9028,21.2303,21.8067,5947.0265059002
2025-01-27,21.8067,21.9028,21.2303,21.6146,5043.469879413
2025-01-28,21.6146,21.8067,21.4225,21.8067,3653.783132454
2025-01-29,21.8067,21.9028,21.3264,21.9028,6266.602409508
2025-01-30,21.9028,22.7674,21.7106,22.4792,21873.7734935202
2025-01-31,22.4792,23.6319,22.4792,22.9595,17230.0337345808
2025-02-03,22.9595,23.2477,22.4792,23.0556,10360.7132527962
2025-02-04,23.0556,23.2477,22.8634,23.2477,7298.1975902094
2025-02-05,23.2477,23.4398,21.8067,22.0949,18337.6192767264
2025-02-06,22.287,23.0556,21.2303,21.2303,14003.0457828408
2025-02-07,21.2303,23.3438,21.2303,23.3438,30351.3831318978
2025-02-10,23.5359,24.0162,23.3438,23.8241,27969.657830742603
2025-02-11,24.0162,24.0162,23.3438,23.728,8224.655421515401
2025-02-12,23.9201,24.0162,23.2477,23.9201,15715.4313249738
2025-02-13,24.0162,24.0162,23.2477,23.8241,9651.8168672688
2025-02-14,23.8241,23.9201,23.2477,23.5359,7824.925301041801
2025-02-17,23.5359,24.7847,23.4398,24.5926,11965.879517823
2025-02-18,24.5926,24.8808,24.3044,24.7847,5597.2626504858
2025-02-19,24.7847,24.7847,24.3044,24.4965,9053.2626504138
2025-02-20,24.7847,24.8808,24.3044,24.4005,6118.7855420412
2025-02-21,24.4005,24.7847,24.2083,24.7847,7910.2843371846
2025-02-24,24.7847,24.8808,24.2083,24.6887,6258.2746986648
2025-02-25,24.5926,24.5926,23.9201,24.4965,5303.710843263
2025-02-26,24.4965,24.4965,23.3438,23.8241,7616.7325299618
2025-02-27,23.8241,24.2083,21.6146,22.5752,15161.638553901
2025-02-28,22.8634,22.8634,21.6146,22.3831,6589.301204682
2025-03-03,22.0949,22.0949,21.2303,21.9988,11728.5397587918
2025-03-04,21.6146,22.0949,19.9815,20.6539,22801.2722886816
2025-03-05,22.0949,23.728,22.0949,23.0556,16418.0819273688
2025-03-06,23.6319,24.2083,23.0556,23.5359,13842.7373491092
2025-03-07,23.1516,23.4398,23.0556,23.0556,3776.6168673912
2025-03-10,23.4398,23.6319,22.7674,23.0556,3395.6240963148
2025-03-11,23.0556,23.0556,22.287,22.7674,3598.6120481178
2025-03-12,22.7674,22.7674,21.9028,22.6713,2104.8289156188
2025-03-13,22.6713,22.7674,21.9028,22.5752,2649.253011993
2025-03-14,22.5752,22.5752,21.7106,21.9988,12132.433734687
2025-03-17,21.8067,22.5752,21.6146,21.7106,14221.6481924748
2025-03-18,21.8067,23.5359,21.8067,22.9595,10112.963855211
2025-03-19,23.4398,23.728,22.9595,23.4398,4055.5951806384
2025-03-20,23.9201,23.9201,22.191,22.5752,7399.1710841832
2025-03-21,22.9595,22.9595,21.9028,21.9988,5737.7927709648
2025-03-24,22.0949,22.0949,21.7106,22.0949,8048.7325299528
2025-03-25,23.3438,25.6493,23.2477,25.169,45878.3999990442
2025-03-26,25.3611,25.3611,23.8241,24.6887,20136.4048188576
2025-03-27,25.265,25.8414,24.3044,25.8414,17757.8024092686
2025-03-28,25.8414,26.8021,25.7454,26.5139,17501.7253008402
2025-03-31,25.9375,26.3218,24.6887,25.7454,15179.3349394428
2025-04-01,24.7847,25.9375,24.7847,25.9375,7266.9686745474
2025-04-02,25.9375,25.9375,25.169,25.7454,2728.3662650034003
2025-04-03,25.265,25.7454,24.7847,24.7847,7037.956626359401
2025-04-04,25.265,25.265,23.2477,24.0162,21059.7397585974
2025-04-07,23.0556,24.0162,21.9988,23.5359,24426.216866961
2025-04-08,24.0162,24.2083,23.5359,23.9201,4210.698795093
2025-04-09,23.5359,24.0162,23.1516,23.5359,8800.3084335516
2025-04-10,24.7847,25.3611,23.728,24.4005,10392.9831323136
2025-04-11,24.6887,24.6887,23.728,24.0162,4023.325301121
2025-04-14,24.4005,24.4965,24.0162,24.4965,2373.397590312
2025-04-15,24.4965,24.4965,23.6319,24.0162,8715.990361264201
2025-04-16,24.0162,24.0162,23.1516,23.1516,17703.672288787802
2025-04-17,23.5359,23.9201,23.1516,23.4398,5321.4072288048
2025-04-22,23.4398,23.9201,23.3438,23.9201,5487.9614456688005
2025-04-23,23.9201,24.3044,23.5359,24.1123,4347.0650601504
2025-04-24,23.6319,24.1123,23.1516,23.8241,8349.5710841634
2025-04-25,23.8241,24.1123,23.5359,23.8241,3478.9012047468
2025-04-28,23.8241,23.9201,23.4398,23.6319,3623.5951806474
2025-04-29,23.6319,24.0162,23.4398,23.9201,5115.2963854356
2025-04-30,23.9201,24.0162,23.4398,23.8241,1511.4795180408
2025-05-02,23.8241,24.0162,22.7674,23.2477,9277.0698793248
2025-05-05,23.2477,23.9201,23.0556,23.8241,6045.9180721632
2025-05-06,23.8241,23.9201,23.5359,23.6319,2349.4554216378
2025-05-07,23.6319,23.728,23.4398,23.5359,4298.1397589466005
2025-05-08,23.5359,23.5359,23.1516,23.5359,4480.3084336416005
2025-05-09,23.5359,23.6319,23.0556,23.5359,4753.0409637564
2025-05-12,23.728,23.728,23.2477,23.4398,4620.8385541206
2025-05-13,23.5359,24.8808,22.8634,24.0162,22033.0409633964
2025-05-14,24.4005,24.8808,24.2083,24.6887,7799.942168512201
2025-05-15,24.4965,24.8808,24.3044,24.6887,7383.5566263522
2025-05-16,24.7847,26.1296,24.6887,25.5532,12742.4385539514
2025-05-19,25.6493,25.9375,25.169,25.9375,17170.698794823
2025-05-20,26.61,28.2431,26.3218,28.2431,39453.5710835154
2025-05-21,28.2431,31.7014,27.4745,30.7407,46377.021685780805
2025-05-22,30.6447,31.2211,28.5313,29.684,18557.2626502158
2025-05-23,29.588,29.7801,26.9942,28.5313,28026.9108427896
2025-05-26,28.6273,30.7407,28.3391,30.6447,22771.084336875
2025-05-27,30.6447,30.7407,30.4525,30.5486,7968.578313087
2025-05-28,30.5486,30.5486,29.2998,29.7801,4152.4048191906
2025-05-29,30.4525,30.7407,29.3958,30.4525,12514.4674696188
2025-05-30,30.5486,30.5486,30.0683,30.5486,2224.5397589898
2025-06-02,30.5486,31.125,29.0116,30.8368,7805.1469877892
2025-06-03,31.125,32.1817,30.9329,31.7014,12404.1253009464
2025-06-04,31.7014,32.566,31.5093,32.1817,8876.2987949958
2025-06-05,32.566,33.1424,32.2778,32.662,5949.108433611
2025-06-06,32.662,32.662,31.125,32.2778,5038.265060136
2025-06-09,32.2778,32.662,31.7975,31.7975,5040.3469878468
2025-06-10,32.0856,32.1817,30.2604,31.2211,12881.927710575
2025-06-11,30.9329,31.5093,29.9722,30.2604,4223.1903613578
2025-06-12,30.2604,31.5093,30.2604,30.7407,3495.5566264332
2025-06-13,30.3565,31.7014,29.9722,31.6053,3876.5493975096
2025-06-16,31.6053,31.7014,30.9329,31.5093,3598.6120481178
2025-06-17,31.5093,32.662,31.2211,32.662,8996.0096383668
2025-06-18,33.0463,35.3519,33.0463,34.4873,20068.7421682566
2025-06-20,34.7755,36.5046,34.6794,35.544,30743.8265053836
2025-06-23,35.2558,36.2164,34.103,34.4873,12746.602409373
2025-06-24,35.1597,35.9282,34.5833,35.1597,6456.0578311908
2025-06-25,35.544,36.2164,35.1597,36.0243,6016.7710842120005
2025-06-26,36.2164,36.2164,34.6794,35.7361,5466.1012047054
2025-06-27,35.7361,35.7361,33.9109,34.6794,13710.5349394734
2025-06-30,34.6794,34.6794,32.9502,34.0069,7104.578313105
2025-07-01,34.0069,34.9676,33.4306,34.9676,6792.289156485001
2025-07-02,35.1597,36.0243,34.3912,35.8322,5040.3469878468
2025-07-03,36.0243,36.4086,35.1597,36.4086,11109.1662648288
2025-07-04,36.5046,38.6181,36.4086,38.3299,27250.3518066612
2025-07-07,38.7141,41.8843,38.7141,40.7315,29092.8578307192
2025-07-08,40.7315,43.2292,40.5394,43.037,41499.0650593764
2025-07-09,44.2859,44.7662,43.037,44.6701,20808.867469446
2025-07-10,44.7662,47.456,40.8275,41.3079,62534.862649299605
2025-07-11,41.5,43.2292,41.5,42.2685,20688.1156622196
2025-07-14,42.2685,44.2859,42.2685,44.0938,16377.4843370082
2025-07-15,44.0938,45.919,44.0938,44.6701,22600.3662645894
2025-07-16,44.6701,45.6308,43.6134,44.9583,18227.277108054
2025-07-17,44.9583,45.0544,43.2292,44.0938,8394.332529945601
2025-07-18,43.9977,44.6701,43.3252,44.0938,4480.3084336416005
2025-07-21,44.1898,44.1898,41.3079,41.5961,18794.602409247
2025-07-22,41.8843,42.8449,38.9063,41.8843,33440.963854725
2025-07-23,41.5,42.2685,40.3472,40.4433,8008.1349395922
2025-07-24,41.1157,41.2118,38.3299,40.1551,19172.4722887572
2025-07-25,39.963,40.059,38.8102,39.7708,5951.1903613218
2025-07-28,39.7708,42.0764,39.7708,40.8275,10605.3397588152
2025-07-29,41.3079,43.1331,40.9236,43.1331,10329.4843371342
2025-07-30,43.037,43.1331,41.0197,42.3646,4825.9084336344
2025-07-31,42.6528,42.7488,40.4433,40.7315,5948.0674697556005
2025-08-01,40.7315,41.6921,40.059,40.6354,6125.0313251736
2025-08-04,40.6354,41.7882,40.2512,41.1157,7175.3638552722
2025-08-05,40.9236,41.6921,40.7315,41.2118,3014.6313252384
2025-08-06,41.5,41.8843,40.6354,41.0197,4111.80722883
2025-08-07,41.0197,41.5,40.8275,41.5,5175.6722890488
2025-08-08,42.1,42.7,40.6,41.5,4926.0
2025-08-11,41.0,42.4,40.4,40.8,8033.0
2025-08-12,40.4,41.1,40.0,40.0,5376.0
2025-08-13,40.0,40.0,38.4,39.2,15211.0
2025-08-14,39.2,39.2,37.6,38.3,9231.0
2025-08-18,38.3,38.6,36.7,37.2,25061.0
2025-08-19,37.2,40.8,36.5,39.8,17934.0
2025-08-20,39.9,42.6,39.9,42.4,14213.0
2025-08-21,42.7,44.2,42.7,43.0,13207.0
2025-08-22,43.0,43.2,40.3,42.2,13080.0
2025-08-25,42.0,42.0,40.6,41.3,4533.0
2025-08-26,41.3,42.8,41.1,42.2,4734.0
2025-08-27,42.9,42.9,41.2,42.3,2995.0
2025-08-28,42.8,44.5,42.3,43.0,21013.0
2025-08-29,43.3,43.8,40.6,41.1,18635.0
2025-09-01,41.1,42.0,39.6,40.1,11382.0
2025-09-02,40.0,40.7,39.7,40.7,3560.0
2025-09-03,40.7,42.2,40.7,42.0,5412.0
2025-09-04,43.9,45.6,43.0,45.6,31739.0
2025-09-05,45.8,46.6,44.6,45.6,15701.0
2025-09-08,45.7,48.9,45.7,48.4,15240.0
2025-09-09,48.0,48.3,46.7,47.0,6753.0
2025-09-10,46.5,47.9,45.2,47.8,8108.0
2025-09-11,47.8,47.8,46.1,47.1,3392.0
2025-09-12,47.2,47.7,46.2,47.0,3161.0
2025-09-15,47.0,47.4,46.2,46.9,3754.0
2025-09-16,46.9,47.4,46.5,47.0,3757.0
2025-09-17,46.5,48.2,46.5,48.1,11230.0
2025-09-18,48.3,50.6,48.1,50.0,14586.0
2025-09-19,49.9,51.8,49.0,50.4,19399.0
2025-09-22,51.0,52.6,50.0,52.6,10319.0
2025-09-23,53.0,53.2,51.4,52.8,20025.0
2025-09-24,52.8,52.8,50.6,52.4,7894.0
2025-09-25,52.4,52.8,51.6,52.2,2886.0
2025-09-26,52.8,53.0,51.2,51.2,2610.0
2025-09-29,52.6,52.6,48.4,48.5,17786.0
2025-09-30,48.6,49.3,46.6,48.0,9139.0
2025-10-01,47.9,48.8,47.2,48.0,3601.0
2025-10-02,48.5,50.0,48.2,50.0,7198.0
2025-10-03,50.0,50.0,48.0,48.5,6137.0
2025-10-06,48.2,48.3,46.6,47.3,8310.0
2025-10-07,47.6,48.0,46.6,47.0,3059.0
2025-10-08,47.4,47.4,45.8,46.4,6907.0
2025-10-09,46.2,46.8,44.5,45.8,7754.0
2025-10-10,46.7,48.6,46.7,48.5,28573.0
2025-10-13,48.0,50.6,47.5,50.0,9769.0
2025-10-14,50.8,51.0,46.0,47.6,17550.0
2025-10-15,48.4,51.2,48.4,50.6,14963.0
2025-10-16,50.6,50.6,47.8,48.1,10363.0
2025-10-17,48.6,49.4,48.2,49.0,7319.0
2025-10-20,49.4,50.2,49.4,50.0,13972.0
2025-10-21,50.0,50.8,50.0,50.6,5561.0
2025-10-22,50.6,50.6,49.6,50.0,1431.0
2025-10-23,50.0,50.0,49.2,49.6,2858.0
2025-10-24,49.5,49.9,49.1,49.7,2064.0
2025-10-27,49.7,50.0,48.3,49.1,4509.0
2025-10-28,49.3,49.8,48.3,48.3,6810.0
2025-10-29,48.3,49.2,48.0,48.8,7664.0
2025-10-30,48.2,48.9,48.0,48.6,2729.0
2025-10-31,50.6,51.6,49.6,51.0,12153.0
2025-11-03,51.0,52.4,51.0,52.4,13722.0
2025-11-04,52.4,52.4,51.0,51.2,3388.0
2025-11-05,51.2,51.2,50.4,51.0,1240.0
2025-11-06,51.0,51.0,48.5,48.6,6708.0
2025-11-07,48.5,49.5,48.3,49.0,3452.0
2025-11-10,49.0,50.0,48.7,50.0,2788.0
2025-11-12,50.0,50.0,49.1,49.7,1577.0
2025-11-13,49.5,49.7,49.0,49.3,1442.0
2025-11-14,49.1,49.1,48.4,48.8,2873.0
2025-11-17,48.8,48.8,47.5,48.3,3659.0
2025-11-18,47.9,47.9,46.0,46.0,7360.0
2025-11-19,46.0,47.5,46.0,46.8,4281.0
2025-11-20,47.6,49.9,47.5,49.5,8167.0
2025-11-21,49.0,49.5,45.4,46.9,10788.0
2025-11-24,46.9,47.0,45.0,45.1,13833.0
2025-11-25,45.4,47.8,45.4,46.9,6333.0
2025-11-26,46.5,48.8,46.5,48.8,8568.0
2025-11-27,48.8,49.4,48.1,49.0,4394.0
2025-11-28,48.5,49.8,48.5,49.2,3174.0
2025-12-01,50.2,52.4,50.2,52.0,22783.0
2025-12-02,52.4,54.0,49.7,51.0,40860.0
2025-12-03,51.6,51.8,50.4,51.6,8167.0
2025-12-04,51.6,52.2,49.2,50.2,15529.0
2025-12-05,50.6,51.0,49.2,50.8,2719.0
2025-12-08,51.0,51.6,50.2,51.0,5527.0
2025-12-09,51.0,51.8,50.8,51.0,3634.0
2025-12-10,50.8,51.6,49.5,50.0,6243.0
2025-12-11,50.6,50.8,49.1,50.8,6062.0
2025-12-12,50.8,51.0,50.2,51.0,5333.0
2025-12-15,51.4,54.0,51.2,54.0,16092.0
2025-12-16,54.6,58.2,54.2,57.0,16552.0
2025-12-17,57.0,57.0,55.4,56.0,8629.0
2025-12-18,56.0,56.8,55.8,56.0,6413.0
2025-12-19,56.2,56.6,55.4,55.8,3431.0
2025-12-22,56.8,57.2,56.2,57.2,7868.0
2025-12-23,57.8,61.6,57.6,60.8,14668.0
2025-12-29,61.0,62.0,60.0,61.0,10035.0
2025-12-30,61.2,61.6,58.6,59.6,7961.0
2026-01-02,59.6,59.8,57.0,59.2,15290.0
2026-01-05,59.6,61.8,58.2,61.4,16282.0
2026-01-07,61.6,65.0,61.6,62.4,33997.0
2026-01-08,62.6,63.2,61.0,62.0,11131.0
2026-01-09,62.0,62.0,59.4,61.0,22663.0
2026-01-12,60.4,61.0,55.4,59.4,25051.0
2026-01-13,59.4,59.8,58.4,59.0,7600.0
2026-01-14,58.4,58.8,56.4,57.0,17678.0
2026-01-15,57.2,57.2,56.6,57.0,8139.0
2026-01-16,57.0,57.0,55.8,56.2,11865.0
2026-01-19,56.2,56.6,54.6,55.0,11462.0
2026-01-20,55.0,55.2,54.0,55.0,7393.0
2026-01-21,55.0,58.0,55.0,57.4,19724.0
2026-01-22,57.8,59.0,57.8,58.6,22608.0
2026-01-23,59.8,60.0,56.6,57.6,11926.0
2026-01-26,57.6,58.2,56.6,57.2,6741.0
2026-01-27,57.2,57.2,55.0,55.8,11962.0
2026-01-28,55.8,58.4,55.4,57.0,7535.0
2026-01-29,56.0,59.2,55.8,57.8,13771.0
2026-01-30,57.8,59.0,56.6,57.8,6474.0
2026-02-02,57.4,57.4,53.0,57.2,24683.0
2026-02-03,58.0,60.0,57.4,59.6,10867.0
2026-02-04,60.0,61.8,59.4,61.0,12096.0
2026-02-05,60.8,62.0,56.8,58.0,9606.0
2026-02-06,60.4,61.4,58.6,61.4,13940.0
2026-02-09,61.4,62.8,59.2,60.0,17267.0
2026-02-10,58.4,59.8,57.8,57.8,18455.0
2026-02-11,58.0,59.8,57.4,59.0,3798.0
2026-02-12,59.6,60.4,59.0,60.0,2942.0
2026-02-13,59.0,59.0,57.0,58.8,9773.0
2026-02-16,59.0,60.2,57.8,58.0,2441.0
2026-02-17,59.6,59.6,57.6,58.4,2082.0
2026-02-18,58.4,59.4,57.8,58.0,3575.0
2026-02-19,58.0,59.0,56.0,56.4,9756.0
2026-02-20,56.6,58.0,56.6,57.0,2846.0
2026-02-23,57.0,59.4,55.8,56.6,5383.0
2026-02-24,56.8,57.6,55.0,55.8,7531.0
2026-02-25,55.6,56.0,54.0,55.0,6874.0
2026-02-26,55.2,55.6,54.6,54.6,6320.0
2026-02-27,54.4,54.4,53.4,54.4,7651.0
2026-03-02,53.4,54.0,50.2,53.8,18861.0
2026-03-03,54.0,55.0,50.4,50.4,15327.0
2026-03-04,50.4,55.2,50.4,54.8,9285.0
2026-03-05,54.0,57.0,53.4,54.6,7491.0
2026-03-06,54.0,54.4,51.6,52.0,8424.0
2026-03-09,51.0,51.8,50.0,51.2,18908.0
2026-03-10,51.8,54.4,51.0,52.2,10816.0
2026-03-11,52.0,52.0,49.3,50.0,12386.0
2026-03-12,50.2,50.4,49.3,49.4,6366.0
2026-03-13,49.2,49.2,47.3,48.1,10944.0
2026-03-16,47.6,48.0,44.5,46.3,30753.0
2026-03-17,46.3,48.4,46.0,47.4,30306.0
2026-03-18,48.0,48.7,46.5,46.5,12050.0
2026-03-19,46.0,46.2,44.1,46.0,9814.0
2026-03-20,46.0,48.0,45.1,46.4,7144.0
2026-03-23,45.0,46.8,43.0,46.0,34307.0
2026-03-24,45.9,46.4,45.0,45.9,3701.0
2026-03-25,48.7,50.8,48.2,49.4,22302.0
2026-03-26,50.6,50.8,48.0,49.6,7198.0
2026-03-27,49.9,50.0,48.6,49.7,5016.0
2026-03-30,49.0,49.0,46.5,47.8,12043.0
2026-03-31,47.7,48.9,47.1,48.7,3001.0
2026-04-01,48.6,50.6,48.5,49.4,12100.0
2026-04-02,48.0,49.4,48.0,49.4,5736.0
2026-04-07,49.3,49.9,47.3,48.55,8844.0
2026-04-08,49.55,52.0,48.55,49.75,18412.0
2026-04-09,49.2,50.0,48.95,49.15,5176.0
2026-04-10,52.0,53.7,52.0,53.0,50179.0
2026-04-13,52.9,56.9,52.6,56.7,37668.0
2026-04-14,57.2,59.9,56.2,58.8,52147.0
2026-04-15,59.0,59.8,58.3,58.4,13918.0
2026-04-16,58.4,59.2,56.6,57.1,20973.0
2026-04-17,57.2,61.0,57.2,58.8,36344.0
2026-04-20,59.0,62.2,58.8,62.0,25263.0
2026-04-21,63.0,65.0,62.5,65.0,40483.0
2026-04-22,64.9,66.0,63.5,63.9,20770.0
2026-04-23,63.9,64.0,60.5,63.4,17951.0
2026-04-24,63.4,63.5,61.6,62.4,9694.0
2026-04-27,62.4,65.2,62.4,64.8,13995.0
2026-04-28,64.8,65.0,62.3,62.4,9085.0
2026-04-29,62.4,62.5,59.0,59.7,14643.0
2026-04-30,59.7,62.0,58.5,62.0,23449.0
2026-05-04,62.5,64.6,62.1,64.0,13949.0
2026-05-05,64.6,64.6,63.8,64.6,12819.0
2026-05-06,64.9,67.8,64.2,66.0,34293.0
2026-05-07,66.3,67.0,66.0,66.8,9556.0
2026-05-08,67.0,67.0,63.6,65.3,11080.0
2026-05-11,65.3,65.3,62.7,63.8,10430.0
2026-05-12,63.9,63.9,60.0,60.0,23677.0
2026-05-13,60.3,61.8,59.4,59.7,11758.0
2026-05-14,60.0,62.6,60.0,62.6,13530.0
2026-05-15,62.8,65.5,60.0,63.9,14605.0
2026-05-18,64.0,65.0,62.0,63.3,10423.0
2026-05-19,63.2,66.0,62.0,63.7,20862.0
2026-05-20,64.4,64.7,58.7,60.1,56924.0
2026-05-21,60.2,61.5,60.2,61.0,9223.0
2026-05-22,61.0,61.0,57.2,58.5,32432.0
2026-05-25,58.5,58.7,56.7,57.6,17822.0
2026-05-26,57.7,59.6,57.7,59.3,8238.0
2026-05-27,59.3,59.6,57.0,57.6,9504.0
2026-05-28,57.5,58.0,57.1,57.7,4353.0
2026-05-29,57.7,59.0,57.5,58.4,4707.0
2026-06-01,57.8,58.4,57.6,57.7,10514.0
2026-06-02,57.9,59.2,57.7,58.1,8273.0
2026-06-03,58.1,58.9,58.0,58.0,11676.0
2026-06-05,58.0,58.8,58.0,58.0,4524.0
2026-06-08,58.0,58.2,57.5,58.0,5353.0
2026-06-09,58.0,59.6,57.0,57.5,6925.0
2026-06-10,57.8,57.8,56.2,56.4,3980.0
2026-06-11,56.0,56.400001525878906,55.79999923706055,55.79999923706055,10478.0