Date,Open,High,Low,Close,Volume
2024-08-19,9.77879,10.0009,9.4231,9.64536,5938.301128572912
2024-08-20,9.55649,9.95646,9.55649,9.86763,4165.472452946674
2024-08-21,9.95646,10.5788,9.73427,10.1343,8738.155553467393
2024-08-22,10.1343,10.1343,9.82321,9.82321,1677.212915836751
2024-08-23,10.0455,10.0899,9.73427,9.73427,4297.084734068671
2024-08-26,9.51206,10.0455,9.46754,9.77879,3079.952356513096
2024-08-27,9.77879,10.401,9.77879,10.3566,5028.264073635331
2024-08-28,10.5788,10.8455,10.1787,10.6677,9336.597720620415
2024-08-29,10.6677,10.8455,10.3566,10.8455,4513.063862063747
2024-08-30,10.8455,11.1122,10.6232,11.1122,3847.1282174122666
2024-09-02,10.8455,11.4233,10.8455,11.0233,7525.522741078382
2024-09-03,11.3789,11.3789,10.9344,11.29,4060.857562824059
2024-09-04,11.2011,11.2011,10.7122,10.9789,8282.574580352783
2024-09-05,11.1566,11.2011,10.6677,10.9789,5718.947326702913
2024-09-06,11.1566,11.1566,10.4899,10.6677,5849.434716533272
2024-09-09,10.8069,11.5025,9.92556,11.1315,8272.731781309638
2024-09-10,11.0851,11.0851,10.6677,10.9924,1365.8523803647784
2024-09-11,10.9924,11.1315,10.6677,10.9924,1401.427067461888
2024-09-12,10.9924,10.9924,9.92556,9.92556,9903.77728367105
2024-09-13,10.343,10.8532,9.97201,10.5749,4019.93964197337
2024-09-16,10.5749,10.9459,10.4821,10.7141,997.1692595401896
2024-09-17,10.7141,10.8996,10.2039,10.2967,3525.1280850772105
2024-09-18,10.7604,10.8532,10.5749,10.5749,1708.6630014823788
2024-09-19,10.7604,10.7604,10.2039,10.4358,3906.7474557552937
2024-09-20,10.5749,10.7141,10.3894,10.6677,480.7972862215401
2024-09-23,10.6677,10.7604,10.5286,10.7604,710.4157211210647
2024-09-24,10.7604,10.7604,10.4358,10.6213,909.8495730291028
2024-09-25,10.6213,10.6213,10.3894,10.4821,1038.1340507429218
2024-09-26,10.4821,10.6677,9.92556,10.6677,10703.66873294545
2024-09-27,10.6213,10.6677,10.2503,10.6677,2849.2090302321303
2024-09-30,10.6677,10.6677,10.2039,10.5286,2314.510702954364
2024-10-01,10.5286,10.5286,10.2967,10.2967,1843.4156041229448
2024-10-02,10.2967,10.9459,10.2967,10.6677,6600.721487745493
2024-10-03,10.6677,11.0851,10.4358,10.8532,3459.3688149886143
2024-10-04,10.7141,10.8532,10.5749,10.8069,2132.325184184319
2024-10-07,10.5749,10.9459,10.5749,10.6213,3999.457246372004
2024-10-08,10.6213,10.9459,10.6213,10.9459,3443.198502671746
2024-10-09,10.9459,10.9459,10.7604,10.7604,3548.8445431419505
2024-10-10,10.9459,10.9459,10.8069,10.8996,308.3139548416154
2024-10-11,10.8996,10.8996,10.6213,10.7141,1666.6201894585222
2024-10-14,10.7141,10.8069,10.5286,10.8069,8081.922095970595
2024-10-15,10.8069,10.8069,10.7604,10.8069,1432.6896712744992
2024-10-16,10.8069,10.8069,10.5749,10.8069,2947.308924954463
2024-10-17,10.8069,10.8069,10.4358,10.6677,2395.362264538704
2024-10-18,10.8069,10.8069,10.4821,10.6677,3183.395484780735
2024-10-21,10.5749,10.8069,10.3894,10.7604,3251.31079651158
2024-10-22,10.8996,11.4098,10.8996,11.0851,6778.59492323104
2024-10-23,11.0387,11.0387,10.3894,10.7604,6526.3380510879
2024-10-24,10.8069,10.8069,10.3894,10.3894,3488.475377158976
2024-10-25,10.3894,10.5749,10.2503,10.2967,2454.653409700553
2024-10-28,10.5749,10.6677,10.2503,10.6213,1393.8809217140165
2024-10-29,10.6677,10.6677,10.3894,10.4358,600.4575973663627
2024-10-30,10.6677,10.6677,10.4358,10.6213,254.4129137853889
2024-10-31,10.6213,10.9459,10.343,10.9459,6758.112527629673
2024-11-04,10.9459,11.1779,10.9459,11.1779,6050.930868971982
2024-11-05,11.1779,11.1779,10.9459,11.1315,1784.1244589610958
2024-11-06,11.1315,11.1315,10.8996,10.9459,6269.769095660262
2024-11-07,10.8996,10.8996,10.2039,10.2967,16409.632939157582
2024-11-08,10.5749,10.5749,10.3894,10.5749,1463.9522750871106
2024-11-12,10.5286,10.5749,10.343,10.5749,6097.285764280337
2024-11-13,10.5749,10.6677,10.343,10.343,1720.5212305147486
2024-11-14,10.4821,10.8532,10.2503,10.6677,3728.874020269747
2024-11-15,10.6677,10.8532,10.3894,10.8069,2002.9626856493755
2024-11-18,10.8069,11.0387,10.5286,10.5286,3796.789332000592
2024-11-19,10.5286,10.8996,10.2967,10.5749,6267.613054018013
2024-11-20,10.5749,10.8069,10.3894,10.4821,3183.395484780735
2024-11-21,10.6677,10.6677,10.4821,10.4821,3720.24985370075
2024-11-22,11.1315,11.5953,10.9459,11.5025,74455.66405260787
2024-11-25,11.8273,12.9868,11.8273,12.7085,58696.07766858837
2024-11-26,12.894,12.894,12.4766,12.894,15187.157328002368
2024-11-27,12.894,12.9403,12.523,12.8476,7495.478769278851
2024-11-28,12.894,14.6564,12.7085,14.1927,35891.62521852007
2024-11-29,14.5637,14.7029,13.5897,14.6101,21538.85600606809
2024-12-02,14.6101,15.7696,14.6101,15.445,26594.773657142134
2024-12-03,15.5378,15.6769,14.3782,15.2595,25714.0306462834
2024-12-04,15.2595,15.6305,14.6101,15.213,9890.841033817554
2024-12-05,15.213,15.4913,14.7029,14.9812,3946.634226136901
2024-12-06,14.7029,15.0739,14.7029,14.8884,2496.696221724409
2024-12-09,14.8884,15.3058,14.842,14.842,4318.551409424864
2024-12-10,15.1203,15.1203,14.2855,14.7492,5669.3114982939
2024-12-11,14.3782,14.3782,13.1259,14.2855,39179.58872294989
2024-12-12,14.3782,14.3782,13.8217,14.1927,4517.985261332901
2024-12-13,14.2855,14.5637,14.1927,14.1927,4584.822552242623
2024-12-16,14.471,14.6564,14.1927,14.5173,6323.670136716488
2024-12-17,14.5173,14.5173,13.5897,14.239,7780.076266055727
2024-12-18,14.239,14.2855,13.8217,14.239,3019.5363199698063
2024-12-19,14.1463,14.239,13.7752,14.1,3365.58100355078
2024-12-20,14.1,14.1,13.7752,14.1,3919.683705608789
2024-12-23,14.2855,14.842,14.239,14.7956,17085.551994002664
2024-12-27,15.3058,15.7696,15.3058,15.7233,12093.237571374968
2024-12-30,15.7696,17.0683,15.7696,16.5117,14937.056497501477
2025-01-02,17.1611,18.2278,16.8828,17.393,21425.66381985002
2025-01-03,17.393,17.6249,16.9756,17.5322,12802.57527167491
2025-01-07,17.6249,19.3873,17.6249,18.3206,22473.50005798306
2025-01-08,18.6453,18.6453,17.8568,18.5061,6062.789098004352
2025-01-09,18.5061,18.5061,18.0887,18.4598,4507.205053121656
2025-01-10,18.4134,18.5061,17.9495,18.5061,6167.357117653432
2025-01-13,18.4598,18.5061,17.9032,18.3206,6430.394198007817
2025-01-14,18.0423,18.5061,17.996,18.1351,4909.306819401106
2025-01-15,18.367,19.5729,18.1351,19.3873,11762.285179289738
2025-01-16,19.4801,20.5933,19.3873,20.2222,21424.585799028893
2025-01-17,20.315,20.7788,20.0367,20.7788,15167.752953222123
2025-01-20,20.7788,21.7065,20.2222,21.2426,32587.4914017734
2025-01-21,21.2426,21.5209,20.7788,21.1499,7053.490232617795
2025-01-22,20.9643,21.1499,20.0367,20.7788,15959.020235927532
2025-01-23,21.0571,21.3354,20.2222,20.7788,5549.651187149077
2025-01-24,20.7788,21.1499,20.5005,21.0571,6158.732951084436
2025-01-27,21.0571,21.1499,20.5005,20.8716,5223.010878348344
2025-01-28,20.8716,21.0571,20.6861,21.0571,3783.8530821470977
2025-01-29,21.0571,21.1499,20.5933,21.1499,6489.685343169665
2025-01-30,21.1499,21.9848,20.9643,21.7065,22652.45151428973
2025-01-31,21.7065,22.8196,21.7065,22.1703,17843.400631253207
2025-02-03,22.1703,22.4486,21.7065,22.2631,10729.541232652438
2025-02-04,22.2631,22.4486,22.0775,22.4486,7558.003976904074
2025-02-05,22.4486,22.6341,21.0571,21.3354,18990.414784929708
2025-02-06,21.5209,22.2631,20.5005,20.5005,14501.536085767166
2025-02-07,20.5005,22.5414,20.5005,22.5414,31431.853081527897
2025-02-10,22.7269,23.1906,22.5414,23.0051,28965.341442794976
2025-02-11,23.1906,23.1906,22.5414,22.9124,8517.442507704905
2025-02-12,23.0978,23.1906,22.4486,23.0978,16274.880336517015
2025-02-13,23.1906,23.1906,22.4486,23.0051,9995.409053466636
2025-02-14,23.0051,23.0978,22.4486,22.7269,8103.482512393087
2025-02-17,22.7269,23.9327,22.6341,23.7472,12391.849338826463
2025-02-18,23.7472,24.0255,23.4689,23.9327,5796.517955186593
2025-02-19,23.9327,23.9327,23.4689,23.6544,9375.547081320032
2025-02-20,23.9327,24.0255,23.4689,23.5617,6336.606386569983
2025-02-21,23.5617,23.9327,23.3761,23.9327,8191.880219725297
2025-02-24,23.9327,24.0255,23.3761,23.84,6481.06117660067
2025-02-25,23.7472,23.7472,23.0978,23.6544,5492.516083629476
2025-02-26,23.6544,23.6544,22.5414,23.0051,7887.87834816818
2025-02-27,23.0051,23.3761,20.8716,21.7992,15701.373259678769
2025-02-28,22.0775,22.0775,20.8716,21.6137,6823.871797718271
2025-03-03,21.3354,21.3354,20.5005,21.2426,12146.06059161007
2025-03-04,20.8716,21.3354,19.2946,19.9439,23612.96806591169
2025-03-05,21.3354,22.9124,21.3354,22.2631,17002.544390776075
2025-03-06,22.8196,23.3761,22.2631,22.7269,14335.52087931399
2025-03-07,22.3558,22.6341,22.2631,22.2631,3911.059539039792
2025-03-10,22.6341,22.8196,21.9848,22.2631,3516.5039185082146
2025-03-11,22.2631,22.2631,21.5209,21.9848,3726.717978627498
2025-03-12,21.9848,21.9848,21.1499,21.892,2179.7581003137984
2025-03-13,21.892,21.9848,21.1499,21.7992,2743.562989761927
2025-03-14,21.7992,21.7992,20.9643,21.2426,12564.332670206388
2025-03-17,21.0571,21.7992,20.8716,20.9643,14727.920458203318
2025-03-18,21.0571,22.7269,21.0571,22.1703,10472.972277224802
2025-03-19,22.6341,22.9124,22.1703,22.6341,4199.969119101166
2025-03-20,23.0978,23.0978,21.4282,21.7992,7662.571996553153
2025-03-21,22.1703,22.1703,21.1499,21.2426,5942.050766038405
2025-03-24,21.3354,21.3354,20.9643,21.3354,8335.25698893486
2025-03-25,22.5414,24.7676,22.4486,24.3038,47511.61164942138
2025-03-26,24.4893,24.4893,23.0051,23.84,20853.234763832894
2025-03-27,24.3965,24.9531,23.4689,24.9531,18389.95718756334
2025-03-28,24.9531,25.8808,24.8604,25.6025,18124.76406556671
2025-03-31,25.0459,25.417,23.84,24.8604,15719.699613637886
2025-04-01,23.9327,25.0459,23.9327,25.0459,7525.663352270339
2025-04-02,25.0459,25.0459,24.3038,24.8604,2825.4925721673912
2025-04-03,24.3965,24.8604,23.9327,23.9327,7288.4987716229425
2025-04-04,24.3965,24.3965,22.4486,23.1906,21809.43923217035
2025-04-07,22.2631,23.1906,21.2426,22.7269,25295.75856768708
2025-04-08,23.1906,23.3761,22.7269,23.0978,4360.59422144872
2025-04-09,22.7269,23.1906,22.3558,22.7269,9113.588021786769
2025-04-10,23.9327,24.4893,22.9124,23.5617,10762.9598781073
2025-04-11,23.84,23.84,22.9124,23.1906,4166.550473646305
2025-04-14,23.5617,23.6544,23.1906,23.6544,2457.8874721639263
2025-04-15,23.6544,23.6544,22.8196,23.1906,9026.268335275685
2025-04-16,23.1906,23.1906,22.3558,22.3558,18333.90010486487
2025-04-17,22.7269,23.0978,22.3558,22.6341,5510.842437588593
2025-04-22,22.6341,23.0978,22.5414,23.0978,5683.325768968518
2025-04-23,23.0978,23.4689,22.7269,23.2834,4501.814949016034
2025-04-24,22.8196,23.2834,22.3558,23.0051,8646.805006239849
2025-04-25,23.0051,23.2834,22.7269,23.0051,3602.7455841981764
2025-04-28,23.0051,23.0978,22.6341,22.8196,3752.590478334486
2025-04-29,22.8196,23.1906,22.6341,23.0978,5297.394315005937
2025-04-30,23.0978,23.1906,22.6341,23.0051,1565.2862322728165
2025-05-02,23.0051,23.1906,21.9848,22.4486,9607.321557861804
2025-05-05,22.4486,23.0978,22.2631,23.0051,6261.144929091266
2025-05-06,23.0051,23.0978,22.7269,22.8196,2433.0929932780623
2025-05-07,22.8196,22.9124,22.6341,22.7269,4451.1479704231815
2025-05-08,22.7269,22.7269,22.3558,22.7269,4639.801614119974
2025-05-09,22.7269,22.8196,22.2631,22.7269,4922.2430692546
2025-05-12,22.9124,22.9124,22.4486,22.6341,4785.334424971785
2025-05-13,22.7269,24.0255,22.0775,23.1906,22817.388699921787
2025-05-14,23.5617,24.0255,23.3761,23.84,8077.610012686097
2025-05-15,23.6544,24.0255,23.4689,23.84,7646.401684236286
2025-05-16,23.9327,25.2314,23.84,24.6748,13196.052871385362
2025-05-19,24.7676,25.0459,24.3038,25.0459,17781.95344444911
2025-05-20,25.6953,27.2722,25.417,27.2722,40858.067141440784
2025-05-21,27.2722,30.6117,26.5301,29.684,48027.98362274003
2025-05-22,29.5913,30.1479,27.5505,28.6636,19217.877178186984
2025-05-23,28.5709,28.7564,26.0663,27.5505,29024.63258795682
2025-05-26,27.6432,29.684,27.3649,29.5913,23581.705462099075
2025-05-27,29.5913,29.684,29.4057,29.4985,8252.249385708272
2025-05-28,29.4985,29.4985,28.2926,28.7564,4300.225055465748
2025-05-29,29.4057,29.684,28.3853,29.4057,12959.966311559088
2025-05-30,29.4985,29.4985,29.0347,29.4985,2303.730494743119
2025-06-02,29.4985,30.0551,28.0143,29.7768,8083.00011679172
2025-06-03,30.0551,31.0755,29.8696,30.6117,12845.69610451989
2025-06-04,30.6117,31.4465,30.4262,31.0755,9192.28354172886
2025-06-05,31.4465,32.0031,31.1683,31.5392,6160.888992726684
2025-06-06,31.5392,31.5392,30.0551,31.1683,5217.620774242721
2025-06-09,31.1683,31.5392,30.7045,30.7045,5219.77681588497
2025-06-10,30.9827,31.0755,29.2202,30.1479,13340.50766141605
2025-06-11,29.8696,30.4262,28.9419,29.2202,4373.530471302214
2025-06-12,29.2202,30.4262,29.2202,29.684,3619.993917336169
2025-06-13,29.313,30.6117,28.9419,30.5189,4014.549537867747
2025-06-16,30.5189,30.6117,29.8696,30.4262,3726.717978627498
2025-06-17,30.4262,31.5392,30.1479,31.5392,9316.255936158184
2025-06-18,31.9103,34.1367,31.9103,33.3018,20783.1634104598
2025-06-20,33.5801,35.2498,33.4873,34.3222,31838.266931091846
2025-06-23,34.0439,34.9715,32.9307,33.3018,13200.364954669862
2025-06-24,33.9511,34.6932,33.3945,33.9511,6685.88513261433
2025-06-25,34.3222,34.9715,33.9511,34.786,6230.960346099779
2025-06-26,34.9715,34.9715,33.4873,34.5077,5660.687331724903
2025-06-27,34.5077,34.5077,32.7452,33.4873,14198.612235031174
2025-06-30,33.4873,33.4873,31.8175,32.8379,7357.492104174912
2025-07-01,32.8379,33.7656,32.2814,33.7656,7034.085857837554
2025-07-02,33.9511,34.786,33.209,34.6005,5219.77681588497
2025-07-03,34.786,35.1571,33.9511,35.1571,11504.638203040977
2025-07-04,35.2498,37.2906,35.1571,37.0123,28220.429055397926
2025-07-07,37.3833,40.4445,37.3833,39.3314,30128.525908788342
2025-07-08,39.3314,41.7432,39.1459,41.5576,42976.37805495048
2025-07-09,42.7636,43.2274,41.5576,43.1346,21549.636214279337
2025-07-10,43.2274,45.8247,39.4241,39.8879,64761.02280823497
2025-07-11,40.0734,41.7432,40.0734,40.8155,21424.585799028893
2025-07-14,40.8155,42.7636,40.8155,42.5781,16960.501578752217
2025-07-15,42.5781,44.3405,42.5781,43.1346,23404.91004743465
2025-07-16,43.1346,44.0622,42.1142,43.4129,18876.144577890507
2025-07-17,43.4129,43.5057,41.7432,42.5781,8693.159901548204
2025-07-18,42.4853,43.1346,41.8359,42.5781,4639.801614119974
2025-07-21,42.6708,42.6708,39.8879,40.1662,19463.665925403373
2025-07-22,40.4445,41.3721,37.5689,40.4445,34631.418878625496
2025-07-23,40.0734,40.8155,38.9603,39.0531,8293.214176911002
2025-07-24,39.7023,39.7951,37.0123,38.7748,19854.987483471577
2025-07-25,38.5893,38.682,37.4761,38.4037,6163.045034368934
2025-07-28,38.4037,40.63,38.4037,39.4241,10982.876125616704
2025-07-29,39.8879,41.6504,39.5169,41.6504,10697.200608018702
2025-07-30,41.5576,41.6504,39.6096,40.9083,4997.704526733318
2025-07-31,41.1866,41.2793,39.0531,39.3314,6159.81097190556
2025-08-01,39.3314,40.2589,38.682,39.2386,6343.074511496729
2025-08-04,39.2386,40.3517,38.8676,39.7023,7430.79752001138
2025-08-05,39.5169,40.2589,39.3314,39.7951,3121.9482979766367
2025-08-06,40.0734,40.4445,39.2386,39.6096,4258.18224344189
2025-08-07,39.6096,40.0734,39.4241,40.0734,5359.919522631159
2025-08-08,40.6528,41.2322,39.2044,40.0734,5101.359223293
2025-08-11,39.5906,40.9425,39.0113,39.3975,8318.9644012815
2025-08-12,39.0113,39.6872,38.625,38.625,5567.378640768
2025-08-13,38.625,38.625,37.08,37.8525,15752.4919093605
2025-08-14,37.8525,37.8525,36.3075,36.9834,9559.6116504705
2025-08-18,36.9834,37.2731,35.4384,35.9213,25953.1391585355
2025-08-19,35.9213,39.3975,35.2453,38.4319,18572.427184437
2025-08-20,38.5284,41.1356,38.5284,40.9425,14718.9644012715
2025-08-21,41.2322,42.6806,41.2322,41.5219,13677.1521035385
2025-08-22,41.5219,41.715,38.9147,40.7494,13545.63106794
2025-08-25,40.5563,40.5563,39.2044,39.8803,4694.3689320315
2025-08-26,39.8803,41.3288,39.6872,40.7494,4902.524271837
2025-08-27,41.4253,41.4253,39.7838,40.8459,3101.6181229725
2025-08-28,41.3288,42.9703,40.8459,41.5219,21761.0355986715
2025-08-29,41.8116,42.2944,39.2044,39.6872,19298.3818769925
2025-09-01,39.6872,40.5563,38.2388,38.7216,11787.184466001
2025-09-02,38.625,39.3009,38.3353,39.3009,3686.73139158
2025-09-03,39.3009,40.7494,39.3009,40.5563,5604.660194166
2025-09-04,42.3909,44.0325,41.5219,44.0325,32868.8673138645
2025-09-05,44.2256,44.9981,43.0669,44.0325,16259.9352750555
2025-09-08,44.1291,47.2191,44.1291,46.7363,15782.52427182
2025-09-09,46.35,46.6397,45.0947,45.3844,6993.3980582415
2025-09-10,44.9016,46.2534,43.6463,46.1569,8396.634304194
2025-09-11,46.1569,46.1569,44.5153,45.4809,3512.750809056
2025-09-12,45.5775,46.0603,44.6119,45.3844,3273.5275080855
2025-09-15,45.3844,45.7706,44.6119,45.2878,3887.637540447
2025-09-16,45.2878,45.7706,44.9016,45.3844,3890.7443365635
2025-09-17,44.9016,46.5431,44.9016,46.4466,11629.773462765
2025-09-18,46.6397,48.8606,46.4466,48.2813,15105.242718423
2025-09-19,48.1847,50.0194,47.3156,48.6675,20089.5792879945
2025-09-22,49.2469,50.7919,48.2813,50.7919,10686.3430420545
2025-09-23,51.1781,51.3713,49.6331,50.985,20737.8640776375
2025-09-24,50.985,50.985,48.8606,50.5988,8175.016181217
2025-09-25,50.5988,50.985,49.8263,50.4056,2988.737864073
2025-09-26,50.985,51.1781,49.44,49.44,2702.912621355
2025-09-29,50.7919,50.7919,46.7363,46.8328,18419.158576023
2025-09-30,46.9294,47.6053,44.9981,46.35,9464.3365695645
2025-10-01,46.2534,47.1225,45.5775,46.35,3729.1909385055
2025-10-02,46.8328,48.2813,46.5431,48.2813,7454.239482189
2025-10-03,48.2813,48.2813,46.35,46.8328,6355.4692556535
2025-10-06,46.5431,46.6397,44.9981,45.6741,8605.825242705
2025-10-07,45.9638,46.35,44.9981,45.3844,3167.8964401245
2025-10-08,45.7706,45.7706,44.2256,44.805,7152.8802588885
2025-10-09,44.6119,45.1913,42.9703,44.2256,8030.032362447
2025-10-10,45.0947,46.9294,45.0947,46.8328,29590.1618122515
2025-10-13,46.35,48.8606,45.8672,48.2813,10116.7637540295
2025-10-14,49.0538,49.2469,44.4188,45.9638,18174.757281525
2025-10-15,46.7363,49.44,46.7363,48.8606,15495.6634303965
2025-10-16,48.8606,48.8606,46.1569,46.4466,10731.9093850965
2025-10-17,46.9294,47.7019,46.5431,47.3156,7579.5469255545
2025-10-20,47.7019,48.4744,47.7019,48.2813,14469.385113246
2025-10-21,48.2813,49.0538,48.2813,48.8606,5758.9644012855
2025-10-22,48.8606,48.8606,47.895,48.2813,1481.9417475705
2025-10-23,48.2813,48.2813,47.5088,47.895,2959.741100319
2025-10-24,47.7984,48.1847,47.4122,47.9916,2137.475728152
2025-10-27,47.9916,48.2813,46.6397,47.4122,4669.5145630995
2025-10-28,47.6053,48.0881,46.6397,46.6397,7052.427184455
2025-10-29,46.6397,47.5088,46.35,47.1225,7936.828478952
2025-10-30,46.5431,47.2191,46.35,46.9294,2826.1488673095
2025-10-31,48.8606,49.8263,47.895,49.2469,12585.6310679415
2025-11-03,49.2469,50.5988,49.2469,50.5988,14210.485436871
2025-11-04,50.5988,50.5988,49.2469,49.44,3508.608414234
2025-11-05,49.44,49.44,48.6675,49.2469,1284.14239482
2025-11-06,49.2469,49.2469,46.8328,46.9294,6946.796116494
2025-11-07,46.8328,47.7984,46.6397,47.3156,3574.886731386
2025-11-10,47.3156,48.2813,47.0259,48.2813,2887.249190934
2025-11-12,48.2813,48.2813,47.4122,47.9916,1633.1391585735
2025-11-13,47.7984,47.9916,47.3156,47.6053,1493.333333331
2025-11-14,47.4122,47.4122,46.7363,47.1225,2975.2750809015
2025-11-17,47.1225,47.1225,45.8672,46.6397,3789.2556634245
2025-11-18,46.2534,46.2534,44.4188,44.4188,7622.006472479999
2025-11-19,44.4188,45.8672,44.4188,45.1913,4433.3980582455
2025-11-20,45.9638,48.1847,45.8672,47.7984,8457.7346278185
2025-11-21,47.3156,47.7984,43.8394,45.2878,11172.038834934
2025-11-24,45.2878,45.3844,43.4531,43.5497,14325.4368931815
2025-11-25,43.8394,46.1569,43.8394,45.2878,6558.4466019315
2025-11-26,44.9016,47.1225,44.9016,47.1225,8873.009708724
2025-11-27,47.1225,47.7019,46.4466,47.3156,4550.420711967
2025-11-28,46.8328,48.0881,46.8328,47.5088,3286.990291257
2025-12-01,48.4744,50.5988,48.4744,50.2125,23594.0453074065
2025-12-02,50.5988,52.1438,47.9916,49.2469,42314.56310673
2025-12-03,49.8263,50.0194,48.6675,49.8263,8457.7346278185
2025-12-04,49.8263,50.4056,47.5088,48.4744,16081.8122977095
2025-12-05,48.8606,49.2469,47.5088,49.0538,2815.7928802545
2025-12-08,49.2469,49.8263,48.4744,49.2469,5723.7540452985
2025-12-09,49.2469,50.0194,49.0538,49.2469,3763.365695787
2025-12-10,49.0538,49.8263,47.7984,48.2813,6465.2427184365
2025-12-11,48.8606,49.0538,47.4122,49.0538,6277.799352741
2025-12-12,49.0538,49.2469,48.4744,49.2469,5522.8478964315
2025-12-15,49.6331,52.1438,49.44,52.1438,16664.854368906
2025-12-16,52.7231,56.1994,52.3369,55.0406,17141.229773436
2025-12-17,55.0406,55.0406,53.4956,54.075,8936.1812297595
2025-12-18,54.075,54.8475,53.8819,54.075,6641.2944983715
2025-12-19,54.2681,54.6544,53.4956,53.8819,3553.1391585705
2025-12-22,54.8475,55.2338,54.2681,55.2338,8148.090614874
2025-12-23,55.8131,59.4825,55.62,58.71,15190.161812274
2025-12-29,58.9031,59.8688,57.9375,58.9031,10392.2330096925
2025-12-30,59.0963,59.4825,56.5856,57.5513,8244.4012944855
2026-01-02,57.5513,57.7444,55.0406,57.165,15834.304207095
2026-01-05,57.5513,59.6756,56.1994,59.2894,16861.618122951
2026-01-07,59.4825,62.7656,59.4825,60.255,35207.2491908835
2026-01-08,60.4481,61.0275,58.9031,59.8688,11527.2491909205
2026-01-09,59.8688,59.8688,57.3581,58.9031,23469.7734627465
2026-01-12,58.3238,58.9031,53.4956,57.3581,25942.7831714805
2026-01-13,57.3581,57.7444,56.3925,56.9719,7870.5501618
2026-01-14,56.3925,56.7788,54.4613,55.0406,18307.313915829
2026-01-15,55.2338,55.2338,54.6544,55.0406,8428.7378640645
2026-01-16,55.0406,55.0406,53.8819,54.2681,12287.3786407575
2026-01-19,54.2681,54.6544,52.7231,53.1094,11870.032362441
2026-01-20,53.1094,53.3025,52.1438,53.1094,7656.1812297615
2026-01-21,53.1094,56.0063,53.1094,55.4269,20426.148867282
2026-01-22,55.8131,56.9719,55.8131,56.5856,23412.815533944
2026-01-23,57.7444,57.9375,54.6544,55.62,12350.550161793
2026-01-26,55.62,56.1994,54.6544,55.2338,6980.9708737755
2026-01-27,55.2338,55.2338,53.1094,53.8819,12387.831715191
2026-01-28,53.8819,56.3925,53.4956,55.0406,7803.2362459425
2026-01-29,54.075,57.165,53.8819,55.8131,14261.2297734405
2026-01-30,55.8131,56.9719,54.6544,55.8131,6704.466019407
2026-02-02,55.4269,55.4269,51.1781,55.2338,25561.6828478565
2026-02-03,56.0063,57.9375,55.4269,57.5513,11253.8511326685
2026-02-04,57.9375,59.6756,57.3581,58.9031,12526.601941728
2026-02-05,58.71,59.8688,54.8475,56.0063,9947.961165033
2026-02-06,58.3238,59.2894,56.5856,59.2894,14436.24595467
2026-02-09,59.2894,60.6413,57.165,57.9375,17881.6828478685
2026-02-10,56.3925,57.7444,55.8131,55.8131,19111.9741100025
2026-02-11,56.0063,57.7444,55.4269,56.9719,3933.203883489
2026-02-12,57.5513,58.3238,56.9719,57.9375,3046.731391581
2026-02-13,56.9719,56.9719,55.0406,56.7788,10120.9061488515
2026-02-16,56.9719,58.1306,55.8131,56.0063,2527.8964401255
2026-02-17,57.5513,57.5513,55.62,56.3925,2156.116504851
2026-02-18,56.3925,57.3581,55.8131,56.0063,3702.2653721625
2026-02-19,56.0063,56.9719,54.075,54.4613,10103.300970858
2026-02-20,54.6544,56.0063,54.6544,55.0406,2947.313915853
2026-02-23,55.0406,57.3581,53.8819,54.6544,5574.6278317065
2026-02-24,54.8475,55.62,53.1094,53.8819,7799.0938511205
2026-02-25,53.6888,54.075,52.1438,53.1094,7118.705501607
2026-02-26,53.3025,53.6888,52.7231,52.7231,6544.98381876
2026-02-27,52.53,52.53,51.5644,52.53,7923.3656957805
2026-03-02,51.5644,52.1438,48.4744,51.9506,19532.4271844355
2026-03-03,52.1438,53.1094,48.6675,48.6675,15872.6213591985
2026-03-04,48.6675,53.3025,48.6675,52.9163,9615.5339805675
2026-03-05,52.1438,55.0406,51.5644,52.7231,7757.6699029005
2026-03-06,52.1438,52.53,49.8263,50.2125,8723.883495132
2026-03-09,49.2469,50.0194,48.2813,49.44,19581.100323594
2026-03-10,50.0194,52.53,49.2469,50.4056,11201.035598688
2026-03-11,50.2125,50.2125,47.6053,48.2813,12826.925566323
2026-03-12,48.4744,48.6675,47.6053,47.7019,6592.621359213
2026-03-13,47.5088,47.5088,45.6741,46.4466,11333.592232992
2026-03-16,45.9638,46.35,42.9703,44.7084,31847.7669902415
2026-03-17,44.7084,46.7363,44.4188,45.7706,31384.854368883
2026-03-18,46.35,47.0259,44.9016,44.9016,12478.964401275
2026-03-19,44.4188,44.6119,42.5841,44.4188,10163.365695777
2026-03-20,44.4188,46.35,43.5497,44.805,7398.317152092
2026-03-23,43.4531,45.1913,41.5219,44.4188,35528.2847895885
2026-03-24,44.3222,44.805,43.4531,44.3222,3832.7508090555
2026-03-25,47.0259,49.0538,46.5431,47.7019,23095.922330061
2026-03-26,48.8606,49.0538,46.35,47.895,7454.239482189
2026-03-27,48.1847,48.2813,46.9294,47.9916,5194.563106788
2026-03-30,47.3156,47.3156,44.9016,46.1569,12471.7152103365
2026-03-31,46.0603,47.2191,45.4809,47.0259,3107.8317152055
2026-04-01,46.9294,48.8606,46.8328,47.7019,12530.74433655
2026-04-02,46.35,47.7019,46.35,47.7019,5940.194174748
2026-04-07,47.6053,48.1847,45.6741,46.8811,9158.834951442
2026-04-08,47.8467,50.2125,46.8811,48.0398,19067.443365666
2026-04-09,47.5088,48.2813,47.2673,47.4605,5360.258899668
2026-04-10,50.2125,51.8541,50.2125,51.1781,51965.3074432845
2026-04-13,51.0816,54.9441,50.7919,54.7509,39008.932038774
2026-04-14,55.2338,57.8409,54.2681,56.7788,54003.3656957085
2026-04-15,56.9719,57.7444,56.2959,56.3925,14413.462783149
2026-04-16,56.3925,57.165,54.6544,55.1372,21719.6116504515
2026-04-17,55.2338,58.9031,55.2338,56.7788,37637.799352692
2026-04-20,56.9719,60.0619,56.7788,59.8688,26162.3300970465
2026-04-21,60.8344,62.7656,60.3516,62.7656,41924.1423947565
2026-04-22,62.6691,63.7313,61.3172,61.7034,21509.385113235
2026-04-23,61.7034,61.8,58.4203,61.2206,18590.0323624305
2026-04-24,61.2206,61.3172,59.4825,60.255,10039.093851117
2026-04-27,60.255,62.9588,60.255,62.5725,14493.2038834725
2026-04-28,62.5725,62.7656,60.1584,60.255,9408.4142394675
2026-04-29,60.255,60.3516,56.9719,57.6478,15164.2718446365
2026-04-30,57.6478,59.8688,56.4891,59.8688,24283.7540452695
2026-05-04,60.3516,62.3794,59.9653,61.8,14445.5663430195
2026-05-05,62.3794,62.3794,61.6069,62.3794,13275.3398058045
2026-05-06,62.6691,65.4694,61.9931,63.7313,35513.7864077115
2026-05-07,64.0209,64.6969,63.7313,64.5038,9896.181229758
2026-05-08,64.6969,64.6969,61.4138,63.0553,11474.43365694
2026-05-11,63.0553,63.0553,60.5447,61.6069,10801.294498365
2026-05-12,61.7034,61.7034,57.9375,57.9375,24519.87055012349
2026-05-13,58.2272,59.6756,57.3581,57.6478,12176.569579269
2026-05-14,57.9375,60.4481,57.9375,60.4481,14011.650485415
2026-05-15,60.6413,63.2484,57.9375,61.7034,15124.9190938275
2026-05-18,61.8,62.7656,59.8688,61.1241,10794.0453074265
2026-05-19,61.0275,63.7313,59.8688,61.5103,21604.660194141
2026-05-20,62.1863,62.4759,56.6822,58.0341,58950.420711882
2026-05-21,58.1306,59.3859,58.1306,58.9031,9551.3268608265
2026-05-22,58.9031,58.9031,55.2338,56.4891,33586.537216776
2026-05-25,56.4891,56.6822,54.7509,55.62,18456.440129421
2026-05-26,55.7166,57.5513,55.7166,57.2616,8531.262135909
2026-05-27,57.2616,57.5513,55.0406,55.62,9842.330097072
2026-05-28,55.5234,56.0063,55.1372,55.7166,4507.9611650415
2026-05-29,55.7166,56.9719,55.5234,56.3925,4874.5631067885
2026-06-01,55.8131,56.3925,55.62,55.7166,10888.284789627
2026-06-02,55.9097,57.165,55.7166,56.1028,8567.5080906015
2026-06-03,56.1028,56.8753,56.0063,56.0063,12091.650485418
2026-06-05,56.0063,56.7788,56.0063,56.0063,4685.048543682
2026-06-08,56.0063,56.1994,55.5234,56.0063,5543.5598705415
2026-06-09,56.0063,57.5513,55.0406,55.5234,7171.5210355875
2026-06-10,55.8131,55.8131,54.2681,54.4613,4121.68284789
2026-06-11,54.075,54.4613,53.8819,53.8819,10851.003236229
2026-06-12,53.8819,55.0406,53.8819,54.4613,7384.8543689205
2026-06-15,54.4613,56.4891,54.3647,55.5234,5322.97734627
2026-06-16,55.8131,57.5513,55.3303,55.9097,7170.485436882
2026-06-17,56.1994,56.1994,54.075,54.6544,7865.3721682725
2026-06-18,54.5578,54.5578,53.1094,53.4956,10963.8834951285
2026-06-19,53.3991,54.4613,50.7919,53.3025,18406.731391557
2026-06-22,53.3025,53.7853,51.6609,51.9506,8723.883495132
2026-06-23,51.9506,52.1438,51.6609,51.6609,2475.080906145
2026-06-24,51.6609,52.1438,50.5022,50.5988,4659.1585760445
2026-06-25,50.5988,52.1438,50.1159,50.6953,5603.6245954605
2026-06-26,51.4678,53.0128,50.5022,51.6609,8737.3462783035
2026-06-29,52.1438,54.075,51.0816,53.1094,8835.728155326
2026-06-30,54.075,59.2894,54.075,56.9719,13940.1941747355
2026-07-01,57.7444,57.7444,56.0063,56.4891,5739.288025881
2026-07-02,56.4891,58.9031,56.0063,57.9375,6500.4530744235
2026-07-03,58.9031,60.3516,58.4203,59.7722,13411.003236225
2026-07-06,60.3516,61.8,60.1584,60.8344,12981.2297734425
2026-07-07,61.7034,61.8,59.4825,60.8344,7084.5307443255
2026-07-08,61.4138,61.4138,56.0063,58.5169,14034.433656936
2026-07-09,58.8066,59.5791,57.165,58.4203,6759.3527507985
2026-07-10,59.4825,61.0275,58.9031,60.7378,9048.0258899535
2026-07-13,61.2206,61.8,59.8688,60.1584,7378.6407766875
2026-07-14,59.3859,60.0619,58.3238,58.9031,6367.8964401195
2026-07-15,59.2894,60.6413,58.3238,58.9031,8306.537216815499
2026-07-16,58.8066,59.4825,58.3238,59.0963,5758.9644012855
2026-07-17,59.0963,59.5791,58.3238,59.0963,5874.9514563015
2026-07-20,58.8066,58.9997,57.6478,58.3238,6439.352750799
2026-07-21,58.3238,59.7722,57.9375,59.4825,7954.4336569455
2026-07-22,59.6756,60.8344,59.5791,60.6413,8513.6569579155
2026-07-23,60.8344,60.8344,59.3859,59.8688,4251.1326860775
2026-07-24,59.7722,60.255,59.0963,59.6756,4295.663430414
2026-07-27,59.8688,60.1584,58.9031,59.6756,2959.741100319
2026-07-28,59.6756,59.6756,58.8066,59.0963,6044.7896440035
2026-07-29,58.9031,59.2894,58.4203,58.9031,3279.7411003185
2026-07-30,59.0963,60.3516,59.0963,59.4825,7091.779935264
2026-07-31,59.7722,59.7722,58.3238,58.9031,6649.5792880155
2026-08-03,58.9031,59.6756,58.9031,59.1928,5197.6699029045
2026-08-04,59.1928,61.1241,59.1928,60.6413,15887.1197410755
2026-08-05,60.6413,61.8,59.8688,60.8344,11282.8478964225
2026-08-06,60.8344,61.8,60.8344,61.8,8967.2491909245
2026-08-07,63.4,63.4,60.4,62.5,17359.0
2026-08-10,62.5,62.8,61.2,61.4,5888.0
2026-08-11,62.0,62.0,60.4,61.0,7298.0
2026-08-12,61.2,61.2,59.5,60.6,9539.0
2026-08-13,61.0,61.1,59.3,59.4,7726.0
2026-08-14,59.4,60.3,58.6,60.0,8485.0
2026-08-17,59.2,60.1,58.5,58.5,6715.0
2026-08-18,58.6,61.5,58.1,60.0,7350.0
2026-08-19,61.0,61.0,59.0,59.7,1673.0